Time(s) Gap(mm) Temp(C)Valk(mm/s)V0(mm/s)V1(mm/s)  PositionLength(mm)
0        20.0  1200.0     0.0     0.0     0.0       0.0    1000.0
1        30.0  1199.8     0.0     0.0     0.0       0.0    1000.0
2        40.0  1199.6     0.0     0.0     0.0       0.0    1000.0
3        50.0  1199.4     0.0     0.0     0.0       0.0    1000.0
4        60.0  1199.1     0.0     0.0     0.0       0.0    1000.0
5        70.0  1198.9     0.0     0.0     0.0       0.0    1000.0
6        80.0  1198.7     0.0     0.0     0.0       0.0    1000.0
7        90.0  1198.5     0.0     0.0     0.0       0.0    1000.0
8       100.0  1198.3     0.0     0.0     0.0       0.0    1000.0
9       110.0  1198.1     0.0     0.0     0.0       0.0    1000.0
10      120.0  1197.8     0.0     0.0     0.0       0.0    1000.0
11      130.0  1197.6     0.0     0.0     0.0       0.0    1000.0
12      140.0  1197.4     0.0     0.0     0.0       0.0    1000.0
13      150.0  1197.2     0.0     0.0     0.0       0.0    1000.0
14      160.0  1197.0     0.0     0.0     0.0       0.0    1000.0
15      170.0  1196.8     0.0     0.0     0.0       0.0    1000.0
16      180.0  1196.6     0.0     0.0     0.0       0.0    1000.0
17      180.0  1196.3     0.7     0.0     0.0       0.0    1000.0
18      180.0  1196.1     1.3     0.0     0.0       0.0    1000.0
19      180.0  1195.9     2.0     0.0     0.0       0.0    1000.0
20      180.0  1195.7     2.7     0.0     0.0       0.0    1000.0
21      180.0  1195.5     3.4     0.0     0.0       0.0    1000.0
22      180.0  1195.3     4.0     0.0     0.0       0.0    1000.0
23      180.0  1195.0     4.7     0.0     0.0       0.0    1000.0
24      180.0  1194.8     5.4     0.0     0.0       0.0    1000.0
25      180.0  1194.6     6.0     0.0     0.0       0.0    1000.0
26      180.0  1194.4     6.7     0.0     0.0       0.0    1000.0
27      180.0  1194.2     7.4     0.0     0.0       0.0    1000.0
28      180.0  1194.0     8.0     0.0     0.0       0.0    1000.0
29      180.0  1193.7     8.7     0.0     0.0       0.0    1000.0
30      180.0  1193.5     9.4     0.0     0.0       0.0    1000.0
31      180.0  1193.3    10.0     0.0     0.0       0.0    1000.0
32      180.0  1193.1    10.0     0.7     0.7       0.7    1000.0
33      180.0  1192.9    10.0     1.3     1.3       2.0    1000.0
34      180.0  1192.7    10.0     2.0     2.0       4.0    1000.0
35      180.0  1192.5    10.0     2.7     2.7       6.7    1000.0
36      180.0  1192.2    10.0     3.4     3.4      10.1    1000.0
37      180.0  1192.0    10.0     4.0     4.0      14.1    1000.0
38      180.0  1191.8    10.0     4.7     4.7      18.8    1000.0
39      180.0  1191.6    10.0     5.4     5.4      24.1    1000.0
40      180.0  1191.4    10.0     6.0     6.0      30.2    1000.0
41      180.0  1191.2    10.0     6.7     6.7      36.9    1000.0
42      180.0  1190.9    10.0     7.4     7.4      44.2    1000.0
43      180.0  1190.7    10.0     8.0     8.0      52.3    1000.0
44      180.0  1190.5    10.0     8.7     8.7      61.0    1000.0
45      180.0  1190.3    10.0     9.4     9.4      70.3    1000.0
46      180.0  1190.1    10.0    10.0    10.0      80.3    1000.0
47      180.0  1189.9    10.0    10.0    10.0      90.3    1000.0
48      180.0  1189.7    10.0    10.0    10.0     100.3    1000.0
49      180.0  1189.4    10.0    10.0    10.0     110.3    1000.0
50      180.0  1189.2    10.0    10.0    10.0     120.3    1000.0
51      180.0  1189.0    10.0    10.0    10.0     130.3    1000.0
52      180.0  1188.8    10.0    10.0    10.0     140.3    1000.0
53      180.0  1188.6    10.0    10.0    10.0     150.3    1000.0
54      180.0  1188.4    10.0    10.0    10.0     160.3    1000.0
55      180.0  1188.1    10.0    10.0    10.0     170.3    1000.0
56      180.0  1187.9    10.0    10.0    10.0     180.3    1000.0
57      180.0  1187.7    10.0    10.0    10.0     190.3    1000.0
58      180.0  1187.5    10.0    10.0    10.0     200.3    1000.0
59      180.0  1187.3    10.0    10.0    10.0     210.3    1000.0
60      180.0  1187.1    10.0    10.0    10.0     220.3    1000.0
61      180.0  1186.8    10.0    10.0    10.0     230.3    1000.0
62      180.0  1186.6    10.0    10.0    10.0     240.3    1000.0
63      180.0  1186.4    10.0    10.0    10.0     250.3    1000.0
64      180.0  1186.2    10.0    10.0    10.0     260.4    1000.0
65      180.0  1186.0    10.0    10.0    10.0     270.4    1000.0
66      180.0  1185.8    10.0    10.0    10.0     280.4    1000.0
67      180.0  1185.6    10.0    10.0    10.0     290.4    1000.0
68      180.0  1185.3    10.0    10.0    10.0     300.4    1000.0
69      180.0  1185.1    10.0    10.0    10.0     310.4    1000.0
70      180.0  1184.9    10.0    10.0    10.0     320.4    1000.0
71      180.0  1184.7    10.0    10.0    10.0     330.4    1000.0
72      180.0  1184.5    10.0    10.0    10.0     340.4    1000.0
73      180.0  1184.3    10.0    10.0    10.0     350.4    1000.0
74      180.0  1184.0    10.0    10.0    10.0     360.4    1000.0
75      180.0  1183.8    10.0    10.0    10.0     370.4    1000.0
76      180.0  1183.6    10.0    10.0    10.0     380.4    1000.0
77      180.0  1183.4    10.0    10.0    10.0     390.4    1000.0
78      180.0  1183.2    10.0    10.0    10.0     400.4    1000.0
79      180.0  1183.0    10.0    10.0    10.0     410.4    1000.0
80      180.0  1182.8    10.0    10.0    10.0     420.4    1000.0
81      180.0  1182.5    10.0    10.0    10.0     430.4    1000.0
82      180.0  1182.3    10.0    10.0    10.0     440.4    1000.0
83      180.0  1182.1    10.0    10.0    10.0     450.4    1000.0
84      180.0  1181.9    10.0    10.0    10.0     460.4    1000.0
85      180.0  1181.7    10.0    10.0    10.0     470.4    1000.0
86      180.0  1181.5    10.0    10.0    10.0     480.4    1000.0
87      180.0  1181.2    10.0    10.0    10.0     490.4    1000.0
88      180.0  1181.0    10.0    10.0    10.0     500.4    1000.0
89      180.0  1180.8    10.0    10.0    10.0     510.4    1000.0
90      180.0  1180.6    10.0    10.0    10.0     520.4    1000.0
91      180.0  1180.4    10.0    10.0    10.0     530.4    1000.0
92      180.0  1180.2    10.0    10.0    10.0     540.4    1000.0
93      180.0  1180.0    10.0    10.0    10.0     550.4    1000.0
94      180.0  1179.7    10.0    10.0    10.0     560.4    1000.0
95      180.0  1179.5    10.0    10.0    10.0     570.4    1000.0
96      180.0  1179.3    10.0    10.0    10.0     580.4    1000.0
97      180.0  1179.1    10.0    10.0    10.0     590.4    1000.0
98      180.0  1178.9    10.0    10.0    10.0     600.4    1000.0
99      180.0  1178.7    10.0    10.0    10.0     610.4    1000.0
100     180.0  1178.4    10.0    10.0    10.0     620.4    1000.0
101     180.0  1178.2    10.0    10.0    10.0     630.4    1000.0
102     180.0  1178.0    10.0    10.0    10.0     640.4    1000.0
103     180.0  1177.8    10.0    10.0    10.0     650.4    1000.0
104     180.0  1177.6    10.0    10.0    10.0     660.4    1000.0
105     180.0  1177.4    10.0    10.0    10.0     670.4    1000.0
106     180.0  1177.1    10.0    10.0    10.0     680.4    1000.0
107     180.0  1176.9    10.0    10.0    10.0     690.4    1000.0
108     180.0  1176.7    10.0    10.0    10.0     700.4    1000.0
109     180.0  1176.5    10.0    10.0    10.0     710.4    1000.0
110     180.0  1176.3    10.0    10.0    10.0     720.4    1000.0
111     180.0  1176.1    10.0    10.0    10.0     730.4    1000.0
112     180.0  1175.9    10.0    10.0    10.0     740.4    1000.0
113     180.0  1175.6    10.0    10.0    10.0     750.4    1000.0
114     180.0  1175.4    10.0    10.0    10.0     760.4    1000.0
115     180.0  1175.2    10.0    10.0    10.0     770.4    1000.0
116     180.0  1175.0    10.0    10.0    10.0     780.4    1000.0
117     180.0  1174.8    10.0    10.0    10.0     790.4    1000.0
118     180.0  1174.6    10.0    10.0    10.0     800.4    1000.0
119     180.0  1174.3    10.0    10.0    10.0     810.4    1000.0
120     180.0  1174.1    10.0    10.0    10.0     820.4    1000.0
121     180.0  1173.9    10.0    10.0    10.0     830.4    1000.0
122     180.0  1173.7    10.0    10.0    10.0     840.4    1000.0
123     180.0  1173.5    10.0    10.0    10.0     850.4    1000.0
124     180.0  1173.3    10.0    10.0    10.0     860.4    1000.0
125     180.0  1173.1    10.0    10.0    10.0     870.4    1000.0
126     180.0  1172.8    10.0    10.0    10.0     880.4    1000.0
127     180.0  1172.6    10.0    10.0    10.0     890.4    1000.0
128     180.0  1172.4    10.0    10.0    10.0     900.4    1000.0
129     180.0  1172.2    10.0    10.0    10.0     910.4    1000.0
130     180.0  1172.0    10.0    10.0    10.0     920.4    1000.0
131     180.0  1171.8    10.0    10.0    10.0     930.4    1000.0
132     180.0  1171.5    10.0    10.0    10.0     940.4    1000.0
133     180.0  1171.3    10.0    10.0    10.0     950.4    1000.0
134     180.0  1171.1    10.0    10.0    10.0     960.4    1000.0
135     180.0  1170.9    10.0    10.0    10.0     970.4    1000.0
136     180.0  1170.7    10.0    10.0    10.0     980.4    1000.0
137     180.0  1170.5    10.0    10.0    10.0     990.4    1000.0
138     180.0  1170.2    10.0    10.0    10.0    1000.4    1000.0
139     180.0  1170.0    10.0    10.0    10.0    1010.4    1000.0
140     180.0  1169.8    10.0    10.0    10.0    1020.4    1000.0
141     180.0  1169.6    10.0    10.0    10.0    1030.3    1000.0
142     180.0  1169.4    10.0    10.0    10.0    1040.3    1000.0
143     180.0  1169.2    10.0    10.0    10.0    1050.3    1000.0
144     180.0  1169.0    10.0    10.0    10.0    1060.3    1000.0
145     180.0  1168.7    10.0    10.0    10.0    1070.3    1000.0
146     180.0  1168.5    10.0    10.0    10.0    1080.3    1000.0
147     180.0  1168.3    10.0    10.0    10.0    1090.3    1000.0
148     180.0  1168.1    10.0    10.0    10.0    1100.3    1000.0
149     180.0  1167.9    10.0    10.0    10.0    1110.3    1000.0
150     180.0  1167.7    10.0    10.0    10.0    1120.3    1000.0
151     180.0  1167.4    10.0    10.0    10.0    1130.3    1000.0
152     180.0  1167.2    10.0    10.0    10.0    1140.3    1000.0
153     180.0  1167.0    10.0    10.0    10.0    1150.3    1000.0
154     180.0  1166.8    10.0    10.0    10.0    1160.3    1000.0
155     180.0  1166.6    10.0    10.0    10.0    1170.3    1000.0
156     180.0  1166.4    10.0    10.0    10.0    1180.3    1000.0
157     180.0  1166.2    10.0    10.0    10.0    1190.3    1000.0
158     180.0  1165.9    10.0    10.0    10.0    1200.3    1000.0
159     180.0  1165.7    10.0    10.0    10.0    1210.3    1000.0
160     180.0  1165.5    10.0    10.0    10.0    1220.3    1000.0
161     180.0  1165.3    10.0    10.0    10.0    1230.3    1000.0
162     180.0  1165.1    10.0    10.0    10.0    1240.3    1000.0
163     180.0  1164.9    10.0    10.0    10.0    1250.3    1000.0
164     180.0  1164.6    10.0    10.0    10.0    1260.3    1000.0
165     180.0  1164.4    10.0    10.0    10.0    1270.3    1000.0
166     180.0  1164.2    10.0    10.0    10.0    1280.3    1000.0
167     180.0  1164.0    10.0    10.0    10.0    1290.3    1000.0
168     180.0  1163.8    10.0    10.0    10.0    1300.3    1000.0
169     180.0  1163.6    10.0    10.0    10.0    1310.3    1000.0
170     180.0  1163.4    10.0    10.0    10.0    1320.3    1000.0
171     180.0  1163.1    10.0    10.0    10.0    1330.3    1000.0
172     180.0  1162.9    10.0    10.0    10.0    1340.3    1000.0
173     180.0  1162.7    10.0    10.0    10.0    1350.3    1000.0
174     180.0  1162.5    10.0    10.0    10.0    1360.3    1000.0
175     180.0  1162.3    10.0    10.0    10.0    1370.3    1000.0
176     180.0  1162.1    10.0    10.0    10.0    1380.3    1000.0
177     180.0  1161.8    10.0    10.0    10.0    1390.3    1000.0
178     180.0  1161.6    10.0    10.0    10.0    1400.3    1000.0
179     180.0  1161.4    10.0    10.0    10.0    1410.3    1000.0
180     180.0  1161.2    10.0    10.0    10.0    1420.3    1000.0
181     180.0  1161.0    10.0    10.0    10.0    1430.3    1000.0
182     180.0  1160.8    10.0    10.0    10.0    1440.3    1000.0
183     180.0  1160.5    10.0    10.0    10.0    1450.3    1000.0
184     180.0  1160.3    10.0    10.0    10.0    1460.3    1000.0
185     180.0  1160.1    10.0    10.0    10.0    1470.3    1000.0
186     180.0  1159.9    10.0    10.0    10.0    1480.3    1000.0
187     180.0  1159.7    10.0    10.0    10.0    1490.3    1000.0
188     180.0  1159.5    10.0    10.0    10.0    1500.3    1000.0
189     180.0  1159.3    10.0    10.0    10.0    1510.3    1000.0
190     180.0  1159.0    10.0    10.0    10.0    1520.3    1000.0
191     180.0  1158.8    10.0    10.0    10.0    1530.3    1000.0
192     180.0  1158.6    10.0    10.0    10.0    1540.3    1000.0
193     180.0  1158.4    10.0    10.0    10.0    1550.3    1000.0
194     180.0  1158.2    10.0    10.0    10.0    1560.3    1000.0
195     180.0  1158.0    10.0    10.0    10.0    1570.3    1000.0
196     180.0  1157.7    10.0    10.0    10.0    1580.3    1000.0
197     180.0  1157.5    10.0    10.0    10.0    1590.3    1000.0
198     180.0  1157.3    10.0    10.0    10.0    1600.3    1000.0
199     180.0  1157.1    10.0    10.0    10.0    1610.3    1000.0
200     180.0  1156.9    10.0    10.0    10.0    1620.3    1000.0
201     180.0  1156.7    10.0    10.0    10.0    1630.3    1000.0
202     180.0  1156.5    10.0    10.0    10.0    1640.3    1000.0
203     180.0  1156.2    10.0    10.0    10.0    1650.3    1000.0
204     180.0  1156.0    10.0    10.0    10.0    1660.3    1000.0
205     180.0  1155.8    10.0    10.0    10.0    1670.3    1000.0
206     180.0  1155.6    10.0    10.0    10.0    1680.3    1000.0
207     180.0  1155.4    10.0    10.0    10.0    1690.3    1000.0
208     180.0  1155.2    10.0    10.0    10.0    1700.3    1000.0
209     180.0  1154.9    10.0    10.0    10.0    1710.3    1000.0
210     180.0  1154.7    10.0    10.0    10.0    1720.3    1000.0
211     180.0  1154.5    10.0    10.0    10.0    1730.3    1000.0
212     180.0  1154.3    10.0    10.0    10.0    1740.3    1000.0
213     180.0  1154.1    10.0    10.0    10.0    1750.3    1000.0
214     180.0  1153.9    10.0    10.0    10.0    1760.3    1000.0
215     180.0  1153.6    10.0    10.0    10.0    1770.3    1000.0
216     180.0  1153.4    10.0    10.0    10.0    1780.3    1000.0
217     180.0  1153.2    10.0    10.0    10.0    1790.3    1000.0
218     180.0  1153.0    10.0    10.0    10.0    1800.3    1000.0
219     180.0  1152.8    10.0    10.0    10.0    1810.3    1000.0
220     180.0  1152.6    10.0    10.0    10.0    1820.3    1000.0
221     180.0  1152.4    10.0    10.0    10.0    1830.3    1000.0
222     180.0  1152.1    10.0    10.0    10.0    1840.3    1000.0
223     180.0  1151.9    10.0    10.0    10.0    1850.3    1000.0
224     180.0  1151.7    10.0    10.0    10.0    1860.3    1000.0
225     180.0  1151.5    10.0    10.0    10.0    1870.3    1000.0
226     180.0  1151.3    10.0    10.0    10.0    1880.3    1000.0
227     180.0  1151.1    10.0    10.0    10.0    1890.3    1000.0
228     180.0  1150.8    10.0    10.0    10.0    1900.3    1000.0
229     180.0  1150.6    10.0    10.0    10.0    1910.3    1000.0
230     180.0  1150.4    10.0    10.0    10.0    1920.3    1000.0
231     180.0  1150.2    10.0    10.0    10.0    1930.3    1000.0
232     180.0  1150.0    10.0    10.0    10.0    1940.3    1000.0
233     180.0  1150.0    10.0    10.0    10.0    1950.3    1000.0
234     180.0  1150.0    10.0    10.0    10.0    1960.3    1000.0
235     180.0  1150.0    10.0    10.0    10.0    1970.3    1000.0
236     180.0  1150.0    10.0    10.0    10.0    1980.3    1000.0
237     180.0  1150.0    10.0    10.0    10.0    1990.3    1000.0
238     180.0  1150.0    10.0    10.0    10.0    2000.0    1000.0
